,SMA temperature filtered,Ambient temperature filtered,Force sensor filtered,Temperature derivative filtered
0,26.95700774297802,24.09268744062998,794.5835774350472,0.36227813309476115
1,26.95922942821296,24.092713876701552,794.5873341860591,0.3695036114490559
2,26.961471451522154,24.092740427852036,794.5910872469626,0.37675058406553275
3,26.963733824540903,24.092767093794826,794.5948364345966,0.38401876585265743
4,26.966016557512,24.09279387423914,794.598581566242,0.3913078696862553
5,26.968319659279352,24.09282076889002,794.6023224596418,0.39861760643169153
6,26.97064313728173,24.092847777448377,794.6060589330194,0.4059476849662623
7,26.97298699754662,24.092874899610944,794.6097908050987,0.41329781220179485
8,26.975351244684227,24.092902135070304,794.6135178951225,0.42066769310745217
9,26.97773588188154,24.092929483514908,794.6172400228724,0.42805703073273976
10,26.980140910896576,24.09295694462906,794.6209570086866,0.4354655262307113
11,26.982566332052727,24.09298451809293,794.6246686734796,0.44289287888136925
12,26.985012144233224,24.093012203582553,794.628374838761,0.45033878611525757
13,26.987478344875733,24.093040000769832,794.6320753266539,0.4578029435372432
14,26.98996492996707,24.09306790932254,794.6357699599131,0.4652850449504826
15,26.99247189403805,24.09309592890432,794.6394585619443,0.4727847823805703
16,26.994999230158456,24.09312405917469,794.6431409568218,0.48030184609986537
17,26.997546929932156,24.093152299789043,794.6468169693073,0.48783592465199377
18,27.000114983492317,24.093180650398644,794.6504864248684,0.49538670487652114
19,27.00270337949678,24.093209110650633,794.6541491496955,0.5029538719337944
20,27.00531210512356,24.09323768018803,794.6578049707207,0.510537109329947
21,27.00794114606648,24.09326635864972,794.661453715635,0.5181360989420659
22,27.0105904865309,24.093295145670474,794.6650952129065,0.5257505210435147
23,27.01326010922967,24.093324040880916,794.6687292917975,0.5333800543294116
24,27.015949995379124,24.093353043907538,794.672355782382,0.5410243759422568
25,27.018660124695263,24.09338215437271,794.6759745155639,0.5486831614977068
26,27.02139047539008,24.09341137189465,794.6795853230929,0.5563560851104911
27,27.024141024167996,24.09344069608743,794.6831880375821,0.5640428194204684
28,27.026911746222435,24.093470126560984,794.6867824925255,0.5717430356188185
29,27.02970261523258,24.09349966292108,794.6903685223139,0.5794564034743652
30,27.032513603360233,24.093529304769334,794.6939459622517,0.5871825913600284
31,27.035344681246826,24.09355905170319,794.6975146485742,0.5949212662793996
32,27.03819581801059,24.09358890331592,794.7010744184626,0.6026720938934388
33,27.041066981243848,24.093618859196617,794.7046251100614,0.6104347385472886
34,27.04395813701046,24.093648918930178,794.708166562494,0.6182088632972009
35,27.046869249843425,24.093679082097307,794.711698615878,0.6259941299375733
36,27.04980028274261,24.093709348274494,794.7152211113423,0.6337901990280913
37,27.052751197172654,24.093739717034023,794.7187338910414,0.641596729920973
38,27.055721953060992,24.093770187943935,794.7222367981716,0.6494133807883115
39,27.05871250879605,24.093800760568037,794.7257296769859,0.6572398086495114
40,27.06172282122556,24.093831434465883,794.7292123728093,0.665075669398817
41,27.064752845655075,24.09386220919276,794.7326847320538,0.6729206178329273
42,27.067802535846596,24.09389308429968,794.7361466022327,0.6807743076786937
43,27.070871844017354,24.093924059333347,794.7395978319757,0.6886363916208971
44,27.07396072083876,24.09395513383617,794.7430382710437,0.6965065213301013
45,27.0770691154355,24.093986307346242,794.7464677703415,0.7043843474905779
46,27.08019697538479,24.094017579397303,794.7498861819337,0.7122695198282996
47,27.08334424671579,24.09404894951875,794.7532933590578,0.7201616871389978
48,27.086510873909145,24.094080417235602,794.7566891561377,0.7280604973162803
49,27.089696799896732,24.094111982068483,794.7600734287977,0.7359655973798078
50,27.092901966061497,24.09414364353362,794.7634460338757,0.743876633503521
51,27.096126312237523,24.094175401142795,794.7668068294362,0.751793251043919
52,27.099369776710198,24.094207254403354,794.7701556747834,0.7597150945683833
53,27.102632296216584,24.094239202818176,794.7734924304741,0.7676418078835426
54,27.105913805945907,24.094271245885636,794.7768169583308,0.7755730340636781
55,27.109214239540236,24.094303383099597,794.780129121453,0.7835084154791606
56,27.11253352909531,24.094335613949394,794.7834287842305,0.791447593824922
57,27.115871605161523,24.094367937919802,794.7867158123549,0.7993902101489513
58,27.11922839674508,24.094400354491004,794.7899900728314,0.8073359048808153
59,27.122603831309302,24.09443286313858,794.7932514339907,0.8152843178602005
60,27.12599783477612,24.094465463333467,794.7964997655007,0.8232350883654698
61,27.129410331527666,24.09449815454196,794.7997349383772,0.8311878551422329
62,27.132841244408127,24.09453093622565,794.8029568249954,0.8391422564319257
63,27.136290494725674,24.094563807841418,794.8061652991,0.847097930000396
64,27.139758002254606,24.094596768841395,794.8093602358174,0.8550545131664906
65,27.143243685237618,24.09462981867294,794.8125415116644,0.8630116428306422
66,27.146747460388273,24.094662956778603,794.8157090045598,0.8709689555034503
67,27.150269242893618,24.094696182596117,794.8188625938334,0.8789260873342545
68,27.15380894641697,24.094729495558333,794.8220021602364,0.8868826741396957
69,27.157366483100848,24.094762895093208,794.8251275859512,0.8948383514322634
70,27.160941763570122,24.094796380623762,794.8282387546009,0.9027927544488221
71,27.16453469693526,24.09482995156806,794.8313355512574,0.9107455181791184
72,27.168145190795784,24.094863607339153,794.834417862452,0.9186962773942606
73,27.171773151243897,24.09489734734507,794.8374855761829,0.9266446666751708
74,27.17541848286825,24.09493117098877,794.8405385819246,0.9345903204410051
75,27.17908108875786,24.094965077668093,794.8435767706359,0.9425328729775385
76,27.182760870506275,24.094999066775745,794.8466000347679,0.9504719584655109
77,27.186457728215814,24.095033137699243,794.8496082682725,0.958407211008932
78,27.190171560502016,24.095067289820886,794.8526013666095,0.9663382646633413
79,27.193902264498263,24.095101522517716,794.8555792267548,0.9742647534640193
80,27.197649735860544,24.09513583516148,794.8585417472069,0.9821863114541489
81,27.201413868772406,24.095170227118565,794.8614888279945,0.9901025727129217
82,27.20519455595007,24.095204697749995,794.8644203706838,0.998013171383587
83,27.208991688647693,24.095239246411357,794.867336278384,1.0059177417014409
84,27.21280515666283,24.09527387245278,794.8702364557545,1.0138159180217512
85,27.216634848342046,24.09530857521887,794.873120809011,1.0217073348476176
86,27.220480650586666,24.09534335404869,794.8759892459316,1.0295916268577598
87,27.224342448858753,24.0953782082757,794.8788416758624,1.0374684289342373
88,27.228220127187203,24.095413137227712,794.8816780097228,1.0453373761900915
89,27.232113568174025,24.095448140226846,794.8844981600116,1.0531981039969103
90,27.23602265300077,24.09548321658949,794.8873020408114,1.0610502480123123
91,27.239947261435166,24.095518365626237,794.8900895677939,1.0688934442073479
92,27.243887271837856,24.09555358664186,794.8928606582243,1.0767273288938135
93,27.24784256116937,24.095588878935235,794.8956152309663,1.0845515387514781
94,27.251813004997214,24.09562424179932,794.8983532064856,1.092365710855217
95,27.25579847750313,24.09565967452109,794.9010745068543,1.1001694827020516
96,27.25979885149054,24.095695176381486,794.9037790557552,1.1079624922380942
97,27.263813998392145,24.09573074665537,794.9064667784843,1.1157443778853904
98,27.267843788277673,24.095766384611462,794.9091376019553,1.123514778568663
99,27.271888089861804,24.095802089512315,794.911791454702,1.1312733337419492
100,27.275946770512267,24.095837860614232,794.9144282668814,1.1390196834151318
101,27.280019696258076,24.09587369716723,794.9170479702767,1.1467534681803624
102,27.28410673179794,24.095909598414977,794.9196504982996,1.1544743292383712
103,27.288207740508845,24.095945563594746,794.9222357859924,1.1621819084246654
104,27.292322584454777,24.09598159193736,794.92480377003,1.1698758482356082
105,27.296451124395617,24.096017682667128,794.9273543887226,1.1775557918543829
106,27.300593219796177,24.096053835001808,794.9298875820162,1.1852213831768343
107,27.304748728835424,24.09609004815253,794.932403291495,1.1928722668371883
108,27.308917508415863,24.09612632132375,794.9349014603816,1.2005080882336456
109,27.313099414173035,24.0961626537132,794.9373820335388,1.2081284935538499
110,27.317294300485212,24.09619904451182,794.9398449574702,1.2157331298002259
111,27.321502020483244,24.09623549290371,794.9422901803206,1.2233216448151867
112,27.325722426060548,24.09627199806606,794.9447176518762,1.2308936873062082
113,27.32995536788325,24.096308559169117,794.947127323565,1.2384489068707678
114,27.3342006954005,24.09634517537609,794.9495191484567,1.245986954021148
115,27.33845825685492,24.09638184584312,794.9518930812623,1.253507480209099
116,27.342727899293212,24.096418569719216,794.9542490783336,1.2610101378503622
117,27.347009468576932,24.09645534614619,794.9565870976628,1.26849458034905
118,27.351302809393392,24.0964921742586,794.9589070988809,1.2759604621218827
119,27.355607765266722,24.096529053183698,794.9612090432572,1.28340743862228
120,27.359924178569074,24.096565982041348,794.9634928936979,1.290835166364302
121,27.364251890531992,24.096602959943997,794.9657586147439,1.298243302946445
122,27.368590741257908,24.096639985996603,794.9680061725701,1.3056315070752833
123,27.372940569731785,24.096677059296567,794.9702355349826,1.3129994385889603
124,27.377301213832933,24.096714178933684,794.9724466714168,1.3203467584805255
125,27.381672510346917,24.096751343990068,794.9746395529354,1.3276731289211146
126,27.38605429497766,24.096788553540115,794.9768141522251,1.3349782132829748
127,27.390446402359668,24.096825806650426,794.9789704435943,1.3422616761623312
128,27.39484866607037,24.096863102379753,794.9811084029704,1.3495231834020927
129,27.399260918642643,24.096900439778945,794.9832280078963,1.3567624021143982
130,27.40368299157743,24.09693781789088,794.9853292375269,1.3639790007029993
131,27.408114715356536,24.096975235750396,794.9874120726258,1.37117264888548
132,27.412555919455528,24.097012692384258,794.9894764955613,1.3783430177153118
133,27.417006432356786,24.09705018681107,794.991522490303,1.3854897796037418
134,27.42146608156266,24.097087718041244,794.9935500424173,1.3926126083415151
135,27.42593469360881,24.097125285076913,794.9955591390625,1.3997111791204275
136,27.430412094077635,24.097162886911896,794.9975497689856,1.4067851685547101
137,27.43489810761184,24.097200522531626,794.9995219225165,1.4138342547022416
138,27.439392557928123,24.097238190913103,795.0014755915638,1.4208581170855903
139,27.443895267831017,24.097275891024825,795.0034107696092,1.4278564367128848
140,27.448406059226816,24.09731362182673,795.0053274517026,1.434828896098508
141,27.45292475313766,24.09735138227016,795.0072256344563,1.44177517928362
142,27.457451169715714,24.09738917129778,795.00910531604,1.4486949718565034
143,27.461985128257496,24.097426987843548,795.0109664961744,1.4555879609727342
144,27.466526447218293,24.09746483083263,795.0128091761259,1.4624538353751741
145,27.4710749442267,24.097502699181373,795.0146333586991,1.469292285413786
146,27.47563043609931,24.097540591797223,795.0164390482325,1.4761030030652704
147,27.480192738855457,24.0975785075787,795.01822625059,1.4828856819525238
148,27.484761667732126,24.097616445415323,795.0199949731553,1.4896400173639146
149,27.489337037198947,24.097654404187573,795.0217452248252,1.496365706272381
150,27.493918660973293,24.097692382766837,795.023477016002,1.5030624473543455
151,27.498506352035502,24.097730380015367,795.0251903585865,1.5097299410084488
152,27.503099922644193,24.097768394786208,795.0268852659711,1.5163678893741004
153,27.50769918435169,24.097806425923164,795.0285617530318,1.5229759963498464
154,27.512303948019547,24.097844472260757,795.0302198361209,1.5295539676115528
155,27.516914023834165,24.097882532624165,795.0318595330587,1.536101510630406
156,27.521529221322528,24.097920605829195,795.0334808631258,1.5426183346907272
157,27.526149349368016,24.09795869068221,795.0350838470549,1.5491041509076033
158,27.530774216226316,24.09799678598011,795.0366685070229,1.5555586722443309
159,27.535403629541424,24.098034890510284,795.0382348666418,1.5619816135296738
160,27.540037396361758,24.098073003050565,795.0397829509506,1.5683726914749365
161,27.544675323156333,24.09811112236919,795.0413127864058,1.5747316246908487
162,27.549317215831035,24.098149247224757,795.0428244008739,1.5810581337042635
163,27.55396287974498,24.0981873763662,795.0443178236209,1.5873519409746688
164,27.55861211972694,24.098225508532742,795.0457930853041,1.5936127709105103
165,27.56326474009191,24.09826364245386,795.0472502179624,1.599840349885326
166,27.567920544657657,24.09830177684925,795.0486892550068,1.6060344062536946
167,27.57257933676143,24.098339910428813,795.0501102312109,1.612194670366994
168,27.577240919276697,24.098378041892598,795.0515131827011,1.6183208745889708
169,27.581905094629985,24.09841616993079,795.052898146947,1.6244127533111217
170,27.58657166481777,24.09845429322367,795.054265162751,1.6304700429678873
171,27.591240431423454,24.09849241044161,795.0556142702385,1.6364924820516544
172,27.59591119563438,24.098530520245017,795.0569455108472,1.642479811127571
173,27.600583758258953,24.09856862128434,795.0582589273172,1.64843177284817
174,27.60525791974378,24.098606712200024,795.0595545636803,1.654348111967808
175,27.609933480190914,24.098644791622508,795.0608324652495,1.660228575356908
176,27.614610239375118,24.09868285817221,795.0620926786079,1.6660729120160185
177,27.61928799676121,24.098720910459495,795.0633352515982,1.671880873089681
178,27.62396655152145,24.098758947084676,795.0645602333117,1.677652211880108
179,27.628645702552994,24.09879696663799,795.0657676740767,1.6833866838606717
180,27.63332524849539,24.0988349676996,795.0669576254481,1.6890840466892032
181,27.638004987748104,24.09887294883957,795.0681301401959,1.694744060221103
182,27.64268471848812,24.098910908617892,795.0692852722927,1.7003664865222623
183,27.64736423868756,24.098948845584438,795.070423076904,1.7059510898817947
184,27.652043346131386,24.098986758278986,795.0715436103752,1.7114976368245782
185,27.65672183843507,24.099024645231218,795.0726469302201,1.7170058961236108
186,27.66139951306239,24.099062504960717,795.0737330951096,1.722475638812174
187,27.666076167343174,24.09910033597697,795.0748021648592,1.7279066381958115
188,27.670751598491147,24.09913813677939,795.0758542004176,1.7332986698641164
189,27.67542560362176,24.099175905857308,795.0768892638537,1.7386515117023311
190,27.680097979770085,24.099213641689985,795.0779074183451,1.74396494390276
191,27.684768523908698,24.099251342746644,795.0789087281657,1.7492387489759933
192,27.689437032965618,24.09928900748647,795.0798932586732,1.7544727117619443
193,27.694103303842258,24.099326634358615,795.0808610762966,1.759666619440699
194,27.69876713343138,24.099364221802258,795.081812248524,1.7648202615431776
195,27.703428318635098,24.099401768246608,795.0827468438893,1.769933429961611
196,27.708086656382857,24.09943927211092,795.0836649319602,1.7750059189598293
197,27.712741943649466,24.099476731804547,795.0845665833251,1.780037525183365
198,27.7173939774731,24.09951414572695,795.0854518695804,1.785028047669371
199,27.72204255497336,24.09955151226774,795.0863208633172,1.7899772878563487
200,27.726687473369292,24.099588829806727,795.0871736381087,1.7948850495936972
201,27.73132852999743,24.099626096713944,795.0880102684972,1.7997511391510732
202,27.735965522329842,24.099663311349687,795.0888308299811,1.804575365227567
203,27.740598247992178,24.099700472064576,795.0896353990009,1.8093575389606948
204,27.74522650478171,24.099737577199587,795.0904240529267,1.8140974739352087
205,27.749850090685356,24.099774625086127,795.0911968700447,1.8187949861917179
206,27.754468803897733,24.099811614046057,795.091953929544,1.823449894235132
207,27.759082442839144,24.099848542391783,795.0926953115029,1.8280620190429206
208,27.76369080617361,24.09988540842627,795.0934210968757,1.8326311840731877
209,27.76829369282684,24.099922210443147,795.094131367479,1.837157215272566
210,27.772890902004228,24.099958946726755,795.0948262059786,1.8416399410839297
211,27.777482233208794,24.099995615552213,795.0955056958753,1.846079192453926
212,27.782067486259127,24.100032215185486,795.0961699214911,1.8504748028403248
213,27.78664646130731,24.100068743883476,795.0968189679563,1.8548266082191882
214,27.791218958856785,24.100105199894095,795.0974529211953,1.85913444709186
215,27.795784779780234,24.100141581456327,795.0980718679131,1.8633981604917766
216,27.800343725337406,24.100177886800346,795.098675895581,1.8676175919910971
217,27.804895597192907,24.100214114147576,795.0992650924234,1.8717925877071555
218,27.809440197433965,24.100250261710784,795.0998395474033,1.8759229963087343
219,27.81397732858816,24.100286327694185,795.1003993502093,1.8800086690221591
220,27.81850679364112,24.100322310293528,795.1009445912406,1.8840494596372177
221,27.82302839605417,24.100358207696203,795.101475361594,1.8880452245128998
222,27.827541939781923,24.100394018081346,795.1019917530494,1.8919958225829614
223,27.83204722928985,24.100429739619948,795.102493858056,1.8959011153613126
224,27.836544069571783,24.10046537047494,795.1029817697181,1.899760966947229
225,27.841032266167396,24.100500908801344,795.1034555817815,1.9035752440303888
226,27.845511625179586,24.100536352746364,795.103915388619,1.9073438158957319
227,27.849981953291856,24.100571700449507,795.1043612852169,1.9110665544281487
228,27.854443057785595,24.100606950042714,795.1047933671604,1.914743334116991
229,27.85889474655733,24.10064209965049,795.1052117306199,1.9183740320604112
230,27.8633368281359,24.10067714739003,795.1056164723369,1.9219585279695266
231,27.867769111699577,24.100712091371346,795.1060076896099,1.9254967041724127
232,27.872191407093105,24.100746929697404,795.1063854802802,1.9289884456179216
233,27.876603524844697,24.10078166046428,795.106749942718,1.9324336398793291
234,27.881005276182947,24.10081628176127,795.1071011758082,1.9358321771578115
235,27.885396473053675,24.10085079167109,795.1074392789363,1.9391839502857486
236,27.88977692813668,24.10088518826997,795.1077643519748,1.942488854729858
237,27.89414645486247,24.100919469627843,795.1080764952682,1.9457467885941575
238,27.898504867428827,24.100953633808494,795.1083758096202,1.948957652622757
239,27.90285198081739,24.100987678869707,795.1086623962786,1.9521213502024826
240,27.90718761081007,24.101021602863444,795.1089363569224,1.9552377873653288
241,27.91151157400544,24.101055403836014,795.1091977936464,1.9583068727907447
242,27.91582368783503,24.101089079828228,795.1094468089482,1.9613285178077489
243,27.920123770579476,24.101122628875583,795.1096835057142,1.9643026363968779
244,27.924411641384676,24.101156049008438,795.1099079872054,1.967229145191966
245,27.92868712027777,24.101189338252198,795.1101203570432,1.9701079634817584
246,27.932950028183065,24.101222494627486,795.1103207191964,1.9729390132113567
247,27.937200186937865,24.10125551615034,795.1105091779663,1.9757222189834982
248,27.941437419308162,24.1012884008324,795.1106858379737,1.9784575080596694
249,27.945661549004296,24.101321146681098,795.1108508041449,1.9811448103610527
250,27.94987240069645,24.101353751699865,795.1110041816974,1.9837840584693083
251,27.95406980003008,24.101386213888322,795.1111460761267,1.9863751876271907
252,27.95825357364122,24.101418531242487,795.1112765931927,1.9889181357390013
