,SMA temperature filtered,Ambient temperature filtered,Force sensor filtered,Temperature derivative filtered
0,24.587505383936318,24.69479773475506,796.9967910790808,-0.12694898649232014
1,24.587317053085762,24.694987613469326,796.9968281334505,-0.12997758672902485
2,24.5871312926463,24.695177633200817,796.9968661432762,-0.13300064531831543
3,24.58694812289383,24.695367785736597,796.9969051140968,-0.13601796318054052
4,24.586767563934355,24.695558062856314,796.9969450514044,-0.1390293414582126
5,24.586589635702083,24.695748456333003,796.9969859606427,-0.14203458153763251
6,24.58641435795752,24.695938957933905,796.9970278472068,-0.1450334850705089
7,24.586241750285634,24.696129559421237,796.9970707164424,-0.14802585399556972
8,24.586071832094017,24.696320252553008,796.9971145736448,-0.15101149056016247
9,24.58590462261107,24.69651102908381,796.9971594240584,-0.15399019734183983
10,24.585740140884223,24.69670188076562,796.9972052728758,-0.1569617772699273
11,24.585578405778175,24.69689279934861,796.9972521252374,-0.15992603364707011
12,24.58541943597317,24.697083776581934,796.9972999862302,-0.16288277017075534
13,24.58526324996328,24.697274804214516,796.9973488608874,-0.1658317909548068
14,24.58510986605474,24.697465873995856,796.9973987541877,-0.168772900550849
15,24.584959302364283,24.69765697767682,796.9974496710541,-0.1717059039697371
16,24.584811576817515,24.697848107010444,796.9975016163542,-0.17463060670294925
17,24.58466670714732,24.698039253752707,796.9975545948982,-0.177546814743939
18,24.584524710892296,24.698230409663342,796.9976086114393,-0.18045433460944338
19,24.584385605395184,24.69842156650661,796.9976636706725,-0.1833529733607445
20,24.58424940780138,24.69861271605209,796.997719777234,-0.1862425386248807
21,24.58411613505742,24.69880385007547,796.9977769357002,-0.1891228386158047
22,24.58398580390954,24.698994960359336,796.9978351505875,-0.191993682155485
23,24.583858430902218,24.699186038693938,796.9978944263511,-0.19485487869494764
24,24.58373403237679,24.699377076877983,796.9979547673847,-0.19770623833525522
25,24.583612624470042,24.699568066719404,796.9980161780201,-0.20054757184842031
26,24.583494223112897,24.69975900003615,796.9980786625257,-0.20337869069824926
27,24.58337884402906,24.699949868656944,796.9981422251067,-0.20619940706111411
28,24.583266502733736,24.700140664422065,796.9982068699035,-0.20900953384664944
29,24.583157214532363,24.700331379184107,796.998272600992,-0.21180888471837073
30,24.58305099451938,24.700522004808736,796.9983394223827,-0.21459727411421126
31,24.58294785757701,24.700712533175487,796.9984073380194,-0.217374517266975
32,24.58284781837409,24.700902956178492,796.9984763517795,-0.22014043022470164
33,24.582750891364913,24.701093265727245,796.9985464674724,-0.22289482987094159
34,24.582657090788096,24.701283453747354,796.9986176888397,-0.22563753394493738
35,24.5825664306655,24.701473512181302,796.9986900195544,-0.228368361061709
36,24.58247892480117,24.70166343298919,796.9987634632198,-0.23108713073203985
37,24.582394586780268,24.70185320814947,796.9988380233693,-0.23379366338236052
38,24.58231342996811,24.702042829659693,796.998913703466,-0.23648778037452764
39,24.582235467509143,24.70223228953725,796.9989905069015,-0.2391693040254948
40,24.58216071232602,24.702421579820104,796.9990684369957,-0.24183805762687277
41,24.58208917711866,24.702610692567518,796.9991474969962,-0.24449386546437638
42,24.582020874363383,24.70279961986077,796.9992276900774,-0.24713655283715477
43,24.581955816312007,24.702988353803885,796.9993090193404,-0.24976594607700303
44,24.58189401499104,24.70317688652436,796.9993914878123,-0.25238187256745176
45,24.581835482200862,24.703365210173864,796.9994750984453,-0.2549841607627322
46,24.581780229514955,24.703553316928943,796.9995598541165,-0.2575726402066144
47,24.581728268279136,24.70374119899174,796.9996457576271,-0.26014714155111546
48,24.58167960961083,24.703928848590692,796.9997328117024,-0.2627074965750755
49,24.581634264398403,24.704116257981216,796.9998210189907,-0.2652535382025989
50,24.581592243300463,24.70430341944641,796.9999103820628,-0.26778510052135723
51,24.581553556745234,24.704490325297748,797.0000009034117,-0.27030201880075333
52,24.581518214929957,24.704676967875738,797.0000925854519,-0.2728041295099418
53,24.58148622782027,24.704863339550617,797.0001854305193,-0.2752912703357053
54,24.58145760514969,24.705049432723023,797.0002794408703,-0.2777632802001828
55,24.581432356419054,24.705235239824663,797.0003746186811,-0.28021999927844904
56,24.581410490896037,24.70542075331896,797.000470966048,-0.2826612690159404
57,24.581392017614657,24.705605965701736,797.0005684849866,-0.2850869321457278
58,24.581376945374842,24.70579086950184,797.0006671774307,-0.2874968327056316
59,24.581365282741995,24.70597545728182,797.0007670452324,-0.28989081605517825
60,24.5813570380466,24.70615972163854,797.0008680901618,-0.2922687288923957
61,24.581352219383866,24.706343655203828,797.0009703139062,-0.29463041927044487
62,24.58135083461335,24.706527250645113,797.0010737180703,-0.29697573661408583
63,24.581352891358666,24.70671050066604,797.0011783041748,-0.29930453173597615
64,24.58135839700719,24.706893398007104,797.001284073657,-0.30161665685279987
65,24.581367358709773,24.707075935446245,797.0013910278693,-0.3039119656012238
66,24.58137978338052,24.707258105799465,797.00149916808,-0.3061903130536806
67,24.58139567769654,24.70743990192145,797.001608495472,-0.3084515557339759
68,24.58141504809779,24.70762131670614,797.0017190111428,-0.31069555163271734
69,24.581437900786874,24.70780234308733,797.0018307161037,-0.31292216022256386
70,24.58146424172892,24.70798297403927,797.0019436112804,-0.31513124247329416
71,24.58149407665144,24.70816320257722,797.0020576975118,-0.31732266086669075
72,24.58152741104423,24.708343021758047,797.0021729755498,-0.3194962794112393
73,24.581564250159307,24.708522424680773,797.0022894460594,-0.32165196365664095
74,24.58160459901085,24.70870140448716,797.002407109618,-0.32378958070813546
75,24.58164846237517,24.708879954362242,797.0025259667151,-0.3259089992406348
76,24.5816958447907,24.70905806753488,797.0026460177519,-0.32801008951266386
77,24.581746750558015,24.709235737278313,797.0027672630415,-0.33009272338010776
78,24.58180118373985,24.7094129569107,797.0028897028084,-0.3321567743097641
79,24.581859148161165,24.709589719795634,797.0030133371877,-0.33420211739269784
80,24.58192064740924,24.709766019342673,797.0031381662254,-0.3362286293573985
81,24.58198568483375,24.709941849007862,797.0032641898785,-0.33823618858273685
82,24.58205426354689,24.710117202294235,797.0033914080135,-0.34022467511072096
83,24.58212638642352,24.710292072752335,797.0035198204073,-0.3421939706590495
84,24.58220205610132,24.7104664539807,797.0036494267468,-0.3441439586334607
85,24.582281274980957,24.71064033962637,797.0037802266285,-0.34607452413987627
86,24.582364045226296,24.710813723385353,797.0039122195584,-0.3479855539963388
87,24.58245036876461,24.710986599003107,797.0040454049515,-0.3498769367447408
88,24.582540247286815,24.71115896027502,797.0041797821323,-0.3517485626623453
89,24.582633682247714,24.711330801046884,797.0043153503336,-0.3536003237730957
90,24.582730674866283,24.711502115215332,797.0044521086975,-0.35543211385871437
91,24.582831226125958,24.711672896728302,797.0045900562743,-0.3572438284695888
92,24.58293533677491,24.711843139585486,797.0047291920231,-0.3590353649354442
93,24.5830430073264,24.71201283783876,797.0048695148113,-0.36080662237580136
94,24.583154238059098,24.71218198559262,797.0050110234145,-0.3625575017102189
95,24.583269029017437,24.712350577004607,797.0051537165168,-0.3642879056683191
96,24.583387380011988,24.712518606285734,797.0052975927101,-0.3659977387995961
97,24.583509290619837,24.712686067700872,797.0054426504944,-0.3676869074830058
98,24.583634760184985,24.71285295556919,797.0055888882774,-0.36935531993633636
99,24.58376378781877,24.71301926426451,797.0057363043751,-0.3710028862253588
100,24.58389637240029,24.713184988215737,797.0058848970111,-0.37262951827275687
101,24.584032512576822,24.713350121907222,797.0060346643173,-0.3742351298668348
102,24.584172206764322,24.713514659879145,797.0061856043329,-0.3758196366700034
103,24.58431545314786,24.713678596727878,797.0063377150054,-0.3773829562270427
104,24.584462249682108,24.71384192710635,797.0064909941897,-0.3789250079731414
105,24.584612594091837,24.714004645724412,797.0066454396491,-0.38044571324171145
106,24.584766483872414,24.714166747349168,797.0068010490545,-0.3819449952719784
107,24.584923916290336,24.714328226805346,797.0069578199848,-0.3834227792163461
108,24.58508488838374,24.714489078975593,797.0071157499269,-0.38487899214753574
109,24.585249396962947,24.714649298800836,797.0072748362759,-0.3863135630654983
110,24.585417438611028,24.71480888128059,797.007435076335,-0.3877264229041005
111,24.585589009684337,24.714967821473262,797.0075964673157,-0.389117504537583
112,24.58576410631311,24.715126114496478,797.007759006338,-0.3904867427867922
113,24.585942724402013,24.715283755527366,797.0079226904304,-0.3918340744251827
114,24.586124859630765,24.715440739802855,797.0080875165299,-0.3931594381845928
115,24.586310507454716,24.715597062619945,797.0082534814826,-0.3944627747607907
116,24.586499663105464,24.71575271933602,797.0084205820432,-0.3957440268187927
117,24.586692321591453,24.715907705369084,797.0085888148759,-0.39700313899795175
118,24.586888477698622,24.71606201619804,797.0087581765541,-0.39824005791681727
119,24.587088125991006,24.71621564736295,797.0089286635609,-0.39945473217776567
120,24.587291260811398,24.716368594465273,797.0091002722888,-0.4006471123714019
121,24.587497876281986,24.716520853168124,797.0092729990407,-0.40181715108073074
122,24.587707966304993,24.716672419196495,797.0094468400295,-0.4029648028850995
123,24.587921524563345,24.716823288337483,797.0096217913784,-0.40409002436391045
124,24.58813854452134,24.716973456440517,797.0097978491219,-0.40519277410010457
125,24.588359019425305,24.71712291941759,797.0099750092052,-0.4062730126834148
126,24.58858294230427,24.717271673243435,797.0101532674847,-0.40733070271339106
127,24.58881030597066,24.71741971395574,797.0103326197286,-0.408365808802195
128,24.58904110302097,24.717567037655332,797.0105130616172,-0.4093782975771664
129,24.589275325836443,24.717713640506396,797.0106945887425,-0.41036813768316016
130,24.589512966583776,24.717859518736613,797.0108771966096,-0.41133529978465466
131,24.589754017215807,24.71800466863735,797.0110608806365,-0.4122797565676313
132,24.58999846947222,24.718149086563827,797.0112456361546,-0.4132014827412262
133,24.590246314880247,24.71829276893527,797.011431458409,-0.41410045503915377
134,24.590497544755365,24.71843571223507,797.011618342559,-0.41497665222090235
135,24.590752150201997,24.71857791301092,797.0118062836787,-0.4158300550727025
136,24.591010122114238,24.718719367874957,797.0119952767566,-0.41666064640826844
137,24.59127145117656,24.718860073503883,797.012185316697,-0.4174684110693132
138,24.59153612786452,24.71900002663911,797.0123763983203,-0.418253335925837
139,24.59180414244547,24.71913922408685,797.0125685163628,-0.4190154098761903
140,24.592075484979283,24.719277662718238,797.0127616654778,-0.4197546238469117
141,24.59235014531905,24.719415339469435,797.0129558402361,-0.42047097079234086
142,24.592628113111818,24.719552251341728,797.0131510351265,-0.42116444569400757
143,24.592909377799284,24.7196883954016,797.0133472445556,-0.42183504555979706
144,24.593193928618525,24.719823768780838,797.0135444628495,-0.4224827694228922
145,24.593481754602706,24.719958368676593,797.0137426842537,-0.42310761834049365
146,24.5937728445818,24.72009219235145,797.0139419029334,-0.4237095953923179
147,24.59406718718329,24.720225237133487,797.0141421129746,-0.42428870567887467
148,24.59436477083288,24.72035750041635,797.0143433083845,-0.4248449563195237
149,24.59466558375522,24.72048897965927,797.0145454830919,-0.42537835645031197
150,24.59496961397461,24.72061967238713,797.014748630948,-0.42588891722159194
151,24.59527684931569,24.72074957619049,797.0149527457277,-0.4263766517954222
152,24.595587277404178,24.720878688725612,797.0151578211288,-0.42684157534275025
153,24.595900885667536,24.72100700771449,797.0153638507741,-0.42728370504037916
154,24.596217661335686,24.72113453094486,797.0155708282107,-0.4277030600677185
155,24.59653759144172,24.7212612562702,797.0157787469119,-0.428099661603321
156,24.596860662822564,24.721387181609757,797.0159876002775,-0.42847353282120465
157,24.597186862119685,24.721512304948508,797.0161973816341,-0.42882469888696234
158,24.597516175779774,24.72163662433718,797.0164080842363,-0.42915318695365984
159,24.59784859005544,24.721760137892208,797.0166197012672,-0.42945902615752246
160,24.598184091005866,24.721882843795726,797.0168322258394,-0.4297422476134117
161,24.59852266449749,24.722004740295528,797.0170456509953,-0.4300028844100935
162,24.598864296204702,24.72212582570504,797.0172599697086,-0.430240971605298
163,24.599208971610473,24.722246098403257,797.0174751748845,-0.430456546220573
164,24.599556676007033,24.72236555683472,797.0176912593606,-0.43064964723593147
165,24.599907394496533,24.722484199509427,797.017908215908,-0.43082031558429423
166,24.600261111991674,24.722602025002793,797.0181260372317,-0.43096859414573
167,24.600617813216374,24.722719031955577,797.0183447159716,-0.43109452774149226
168,24.600977482706398,24.72283521907379,797.0185642447037,-0.4311981631278555
169,24.601340104809996,24.72295058512864,797.0187846159407,-0.43127954898975157
170,24.601705663688524,24.72306512895642,797.0190058221327,-0.43133873593420685
171,24.60207414331708,24.723178849458417,797.0192278556683,-0.43137577648358283
172,24.60244552748511,24.72329174560083,797.0194507088753,-0.43139072506861975
173,24.602819799797025,24.72340381641463,797.0196743740223,-0.43138363802128604
174,24.603196943672817,24.72351506099548,797.0198988433186,-0.4313545735674335
175,24.603576942348614,24.723625478503592,797.0201241089161,-0.43130359181926103
176,24.603959778877318,24.723735068163613,797.0203501629095,-0.431230754767587
177,24.604345436129165,24.723843829264485,797.0205769973378,-0.4311361262739322
178,24.604733896792304,24.723951761159302,797.0208046041851,-0.4310197720624149
179,24.60512514337338,24.724058863265185,797.0210329753812,-0.4308817597114587
180,24.605519158198096,24.724165135063114,797.0212621028032,-0.43072215864531627
181,24.605915923411747,24.72427057609778,797.0214919782766,-0.4305410401254077
182,24.60631542097979,24.724375185977426,797.0217225935756,-0.43033847724147845
183,24.606717632688383,24.724478964373674,797.021953940425,-0.43011454490257456
184,24.607122540144903,24.72458191102134,797.0221860105001,-0.42986931982784
185,24.6075301247785,24.72468402571827,797.0224187954291,-0.4296028805371356
186,24.607940367840595,24.724785308325142,797.0226522867931,-0.429315307341482
187,24.6083532504054,24.724885758765286,797.0228864761281,-0.4290066823333279
188,24.608768753370413,24.72498537702448,797.0231213549251,-0.42867708937664534
189,24.609186857456912,24.72508416315075,797.0233569146325,-0.4283266140968535
190,24.609607543210455,24.725182117254153,797.0235931466556,-0.4279553438705729
191,24.61003079100135,24.725279239506566,797.0238300423587,-0.4275633678152112
192,24.610456581025122,24.72537553014147,797.0240675930663,-0.427150776778383
193,24.610884893302988,24.72547098945372,797.0243057900643,-0.4267176633271642
194,24.611315707682294,24.7255656177993,797.0245446246003,-0.42626412173718403
195,24.611749003836984,24.725659415595132,797.0247840878857,-0.42579024798155524
196,24.612184761268015,24.725752383318767,797.0250241710966,-0.4252961397196448
197,24.612622959303796,24.725844521508186,797.0252648653745,-0.42478189628568697
198,24.613063577100608,24.725935830761532,797.0255061618287,-0.4242476186772404
199,24.613506593643013,24.72602631173684,797.0257480515361,-0.42369340954349083
200,24.61395198774426,24.72611596515179,797.025990525543,-0.423119373173401
201,24.61439973804669,24.726204791783427,797.0262335748668,-0.4225256154837106
202,24.614849823022098,24.726292792467873,797.0264771904962,-0.4219122440067873
203,24.61530222097214,24.72637996810008,797.0267213633934,-0.4212793678783305
204,24.61575691002868,24.726466319633516,797.026966084495,-0.4206270978249308
205,24.616213868154162,24.726551848079882,797.0272113447131,-0.41995554615148567
206,24.616673073141953,24.72663655450881,797.0274571349368,-0.4192648267284743
207,24.617134502616697,24.726720440047583,797.0277034460331,-0.418555054979093
208,24.617598134034644,24.7268035058808,797.0279502688487,-0.41782634786625367
209,24.61806394468397,24.726885753250087,797.028197594211,-0.41707882387944634
210,24.61853191168512,24.72696718345378,797.0284454129292,-0.4163126030214687
211,24.619002011991075,24.727047797846588,797.028693715796,-0.41552780679502427
212,24.619474222387694,24.727127597839267,797.0289424935886,-0.4147245581891907
213,24.61994851949398,24.727206584898312,797.0291917370702,-0.4139029816657613
214,24.62042487976238,24.7272847605456,797.0294414369912,-0.4130632031454605
215,24.62090327947903,24.72736212635807,797.0296915840909,-0.4122053499940369
216,24.62138369476408,24.727438683967346,797.0299421690979,-0.411329551008234
217,24.621866101571893,24.727514435059422,797.0301931827325,-0.41043593640164217
218,24.622350475691327,24.727589381374287,797.0304446157076,-0.4095246377904338
219,24.622836792745968,24.727663524705566,797.0306964587297,-0.4085957881789825
220,24.62332502819438,24.727736866900173,797.0309487025007,-0.4076495219453701
221,24.623815157330306,24.72780940985792,797.0312013377194,-0.40668597482678215
222,24.624307155282906,24.72788115553116,797.0314543550821,-0.40570528390479516
223,24.62480099701697,24.72795210592442,797.031707745285,-0.4047075875905568
224,24.6252966573331,24.728022263093987,797.0319614990244,-0.4036930256098616
225,24.625794110867925,24.72809162914756,797.0322156069993,-0.40266173898812413
226,24.62629333209429,24.72816020624383,797.0324700599123,-0.40161387003525206
227,24.626794295321428,24.72822799659212,797.0327248484703,-0.40054956233042116
228,24.627296974695152,24.728295002451947,797.0329799633867,-0.39946896070675375
229,24.62780134419801,24.72836122613265,797.0332353953825,-0.39837221123590405
230,24.62830737764943,24.728426669992988,797.0334911351877,-0.3972594612125512
231,24.62881504870591,24.728491336440694,797.0337471735428,-0.3961308591388031
232,24.629324330861134,24.728555227932098,797.0340035012002,-0.39498655470851285
233,24.629835197446134,24.7286183469717,797.0342601089254,-0.3938266987915103
234,24.63034762162941,24.728680696111738,797.0345169874983,-0.39265144341774966
235,24.630861576417086,24.72874227795178,797.0347741277146,-0.39146094176137747
236,24.631377034653,24.728803095138282,797.0350315203883,-0.3902553481247213
237,24.63189396901885,24.728863150364155,797.0352891563513,-0.3890348179222017
238,24.632412352034297,24.72892244636834,797.0355470264558,-0.38779950766417065
239,24.632932156057073,24.728980985935365,797.035805121576,-0.3865495749406775
240,24.633453353283084,24.72903877189489,797.0360634326088,-0.38528517840516496
241,24.633975915746518,24.729095807121272,797.0363219504756,-0.38400647775809776
242,24.63449981531993,24.72915209453312,797.0365806661233,-0.38271363373052525
243,24.635025023714338,24.729207637092827,797.0368395705261,-0.38140680806758115
244,24.635551512479314,24.729262437806124,797.0370986546869,-0.38008616351192187
245,24.636079253003068,24.72931649972162,797.0373579096383,-0.37875186378710596
246,24.63660821651252,24.72936982593033,797.0376173264444,-0.37740407358091715
247,24.637138374073388,24.72942241956522,797.037876896202,-0.37604295852863223
