,SMA temperature filtered,Ambient temperature filtered,Force sensor filtered,Temperature derivative filtered
0,24.245489723735727,23.600857637078192,800.6498870363029,-0.11728339894490666
1,24.24422674576624,23.600845684797942,800.646178969483,-0.11971451787243811
2,24.242975528045932,23.600834189104805,800.6424622506663,-0.12213586208852506
3,24.241736196528304,23.60082315124421,800.6387370564569,-0.1245472612384859
4,24.240508876321524,23.60081257241303,800.6350035644053,-0.12694854573117587
5,24.239293691673122,23.600802453759364,800.6312619529923,-0.12933954675911524
6,24.238090765954777,23.60079279638234,800.6275124016114,-0.13172009631852952
7,24.236900221647208,23.600783601331894,800.6237550905521,-0.1340900272292978
8,24.235722180325176,23.6007748696086,800.6199902009826,-0.13644917315480606
9,24.23455676264258,23.60076660216348,800.6162179149328,-0.13879736862170175
10,24.233404088317663,23.600758799897807,800.6124384152772,-0.1411344490395461
11,24.232264276118325,23.60075146366297,800.6086518857165,-0.14346025072036106
12,24.231137443847544,23.600744594260284,800.6048585107608,-0.14577461089806693
13,24.23002370832893,23.600738192440847,800.6010584757114,-0.14807736774780783
14,24.228923185392347,23.60073225890539,800.5972519666431,-0.1503683604051609
15,24.22783598985972,23.60072679430413,800.5934391703863,-0.1526474289852266
16,24.226762235530927,23.60072179923666,800.5896202745092,-0.154914414601596
17,24.225702035169803,23.6007172742518,800.5857954672988,-0.15716915938519255
18,24.224655500490307,23.600713219847517,800.5819649377431,-0.15941150650298394
19,24.22362274214278,23.600709636470768,800.5781288755131,-0.16164130017656178
20,24.222603869700382,23.60070652451744,800.5742874709437,-0.1638583857005852
21,24.221598991645607,23.60070388433224,800.5704409150151,-0.16606260946108503
22,24.22060821535697,23.600701716208615,800.5665893993344,-0.16825381895362596
23,24.219631647095845,23.600700020388683,800.5627331161168,-0.17043186280132283
24,24.218669391993398,23.600698797063156,800.5588722581666,-0.17259659077270803
25,24.21772155403771,23.6006980463713,800.5550070188584,-0.17474785379944716
26,24.216788236061017,23.600697768400845,800.5511375921177,-0.1768855039938995
27,24.215869539727123,23.600697963187972,800.5472641724023,-0.17900939466652002
28,24.214965565518924,23.60069863071727,800.5433869546827,-0.1811193803431006
29,24.21407641272614,23.60069977092172,800.539506134423,-0.1832153167818465
30,24.213202179433146,23.600701383682654,800.5356219075613,-0.18529706099028578
31,24.21234296250702,23.600703468829757,800.5317344704903,-0.18736447124200842
32,24.211498857585678,23.60070602614106,800.5278440200381,-0.1894174070932323
33,24.210669959066234,23.600709055342957,800.5239507534483,-0.19145572939919278
34,24.209856360093504,23.60071255611021,800.5200548683607,-0.19347930033035368
35,24.209058152548646,23.60071652806598,800.5161565627911,-0.19548798338843615
36,24.20827542703802,23.60072097078184,800.5122560351123,-0.1974816434222633
37,24.207508272882176,23.600725883777834,800.5083534840334,-0.19946014664341719
38,24.20675677810502,23.60073126652251,800.504449108581,-0.20142336064170596
39,24.2060210294232,23.60073711843297,800.5005431080781,-0.20337115440043813
40,24.205301112235592,23.60074343887497,800.4966356821247,-0.20530339831150166
41,24.204597110613012,23.600750227162948,800.4927270305781,-0.20721996419024494
42,24.2039091072881,23.600757482560123,800.4888173535323,-0.2091207252901575
43,24.203237183645392,23.60076520427859,800.4849068512984,-0.2110055563173475
44,24.202581419711542,23.60077339147941,800.4809957243845,-0.21287433344481402
45,24.201941894145776,23.600782043272712,800.4770841734745,-0.21472693432651122
46,24.201318684230486,23.600791158717804,800.4731723994093,-0.21656323811120243
47,24.200711865862043,23.6008007368233,800.4692606031659,-0.21838312545610172
48,24.200121513541795,23.60081077654725,800.4653489858373,-0.22018647854030043
49,24.19954770036724,23.600821276797276,800.4614377486118,-0.22197318107797678
50,24.198990498023413,23.600832236430733,800.4575270927537,-0.2237431183313862
51,24.19844997677446,23.600843654254827,800.4536172195819,-0.2254961771236302
52,24.197926205455392,23.60085552902681,800.4497083304504,-0.2272322458512018
53,24.197419251464062,23.600867859454134,800.4458006267275,-0.2289512144963052
54,24.196929180753322,23.600880644194635,800.4418943097758,-0.2306529746389482
55,24.196456057823386,23.600893881856713,800.4379895809312,-0.23233741946880498
56,24.195999945714398,23.60090757099953,800.4340866414834,-0.23400444379684754
57,24.195560905999187,23.60092171013322,800.4301856926551,-0.23565394406674386
58,24.19513899877626,23.600936297719084,800.4262869355815,-0.23728581836602095
59,24.194734282662964,23.60095133216982,800.4223905712906,-0.2388999664369913
60,24.194346814788844,23.600966811849748,800.4184968006821,-0.24049628968744077
61,24.193976650789274,23.600982735075025,800.4146058245072,-0.2420746912010762
62,24.19362384479924,23.60099910011391,800.4107178433491,-0.24363507574773155
63,24.193288449447333,23.601015905186998,800.4068330576015,-0.24517734979333067
64,24.192970515849982,23.60103314846749,800.4029516674491,-0.2467014215096052
65,24.19267009360587,23.601050828081448,800.399073872847,-0.24820720078356648
66,24.192387230790587,23.60106894210806,800.3951998735007,-0.2496945992267297
67,24.19212197395148,23.601087488579928,800.3913298688458,-0.2511635301840892
68,24.19187436810272,23.60110646548336,800.3874640580275,-0.2526139087428435
69,24.19164445672059,23.60112587075866,800.383602639881,-0.2540456517408691
70,24.191432281738972,23.60114570230042,800.3797458129111,-0.2554586777749414
71,24.191237883545075,23.60116595795784,800.3758937752717,-0.25685290720870185
72,24.19106130097536,23.601186635535033,800.3720467247466,-0.2582282621803707
73,24.190902571311703,23.60120773279137,800.3682048587289,-0.2595846666102032
74,24.19076173027775,23.601229247441793,800.3643683742006,-0.26092204620768966
75,24.190638812035516,23.60125117715715,800.3605374677138,-0.26224032847849754
76,24.190533849182184,23.601273519564543,800.3567123353703,-0.2635394427311545
77,24.190446872747124,23.601296272247694,800.3528931728013,-0.26481932008347275
78,24.190377912189156,23.60131943274728,800.3490801751482,-0.266079893468713
79,24.190326995394013,23.60134299856131,800.3452735370428,-0.2673210976414872
80,24.19029414867202,23.601366967145502,800.3414734525875,-0.26854286918340003
81,24.19027939675602,23.60139133591365,800.3376801153356,-0.2697451465084281
82,24.1902827627995,23.601416102238023,800.3338937182722,-0.2709278698680369
83,24.190304268374955,23.60144126344974,800.3301144537942,-0.2720909813560338
84,24.19034393347243,23.601466816839185,800.3263425136912,-0.273234424913158
85,24.190401776498355,23.6014927596564,800.3225780891263,-0.2743581463314063
86,24.19047781427455,23.60151908911149,800.3188213706163,-0.2754620932580944
87,24.190572062037475,23.601545802375064,800.3150725480132,-0.2765462151996536
88,24.19068453343767,23.601572896578638,800.3113318104845,-0.27761046352516267
89,24.190815240539475,23.601600368815074,800.3075993464945,-0.27865479146961425
90,24.190964193820935,23.601628216139,800.3038753437853,-0.2796791541369165
91,24.19113140217391,23.60165643556728,800.3001599893576,-0.2806835085026294
92,24.19131687290444,23.601685024079426,800.2964534694524,-0.28166781341643504
93,24.191520611733328,23.601713978618086,800.2927559695324,-0.28263202960434314
94,24.191742622796934,23.601743296089474,800.2890676742627,-0.2835761196706312
95,24.191982908648185,23.601772973363843,800.285388767493,-0.2845000480995191
96,24.19224147025782,23.601803007275965,800.281719432239,-0.2854037812565793
97,24.192518307015856,23.60183339462559,800.2780598506637,-0.2862872873898814
98,24.19281341673326,23.601864132177933,800.2744102040598,-0.2871505366308728
99,24.193126795643842,23.60189521666417,800.2707706728311,-0.2879935009949947
100,24.19345843840639,23.601926644781905,800.267141436475,-0.2888161543820346
101,24.193808338107,23.60195841319569,800.2635226735637,-0.2896184725762145
102,24.19417648626164,23.6019905185375,800.2599145617276,-0.29040043324601683
103,24.1945628728189,23.602022957407275,800.2563172776366,-0.29116201594374747
104,24.194967486163005,23.602055726373397,800.2527309969835,-0.2919032021048365
105,24.195390313117016,23.602088821973204,800.2491558944654,-0.2926239750468781
106,24.195831338946256,23.60212224071353,800.2455921437675,-0.29332431996840885
107,24.19629054736193,23.60215597907122,800.242039917545,-0.2940042239474265
108,24.196767920524987,23.602190033493653,800.2384993874065,-0.29466367593964893
109,24.197263439050182,23.602224400399283,800.234970723897,-0.2953026667765148
110,24.197777082010354,23.602259076178175,800.2314540964812,-0.29592118916292587
111,24.198308826940906,23.602294057192534,800.227949673526,-0.29651923767473276
112,24.19885864984451,23.602329339777253,800.2244576222851,-0.2970968087559646
113,24.19942652519601,23.602364920240465,800.2209781088811,-0.2976539007158032
114,24.200012425947527,23.602400794864096,800.2175112982911,-0.2981905137253034
115,24.200616323533797,23.60243695990442,800.2140573543288,-0.2987066498138601
116,24.201238187877685,23.602473411592616,800.2106164396291,-0.2992023128654231
117,24.20187798739591,23.602510146135337,800.2071887156325,-0.29967750861446163
118,24.202535689005,23.602547159715257,800.2037743425687,-0.3001322446416782
119,24.203211258127414,23.602584448491665,800.2003734794417,-0.30056653036947467
120,24.20390465869789,23.602622008601013,800.1969862840133,-0.3009803770571704
121,24.20461585316998,23.60265983615751,800.1936129127889,-0.30137379779597456
122,24.205344802522774,23.602697927253693,800.1902535210016,-0.30174680750371374
123,24.206091466267846,23.602736277961004,800.1869082625975,-0.3020994229193162
124,24.206855802456385,23.602774884330373,800.1835772902209,-0.30243166259705384
125,24.207637767686503,23.60281374239282,800.1802607551988,-0.3027435469005437
126,24.208437317110764,23.60285284816002,800.1769588075275,-0.30303509799651085
127,24.209254404443882,23.602892197624914,800.1736715958573,-0.3033063398483128
128,24.210088981970614,23.602931786762284,800.1703992674784,-0.303557298209229
129,24.21094100055384,23.602971611529355,800.1671419683071,-0.30378800061551503
130,24.211810409642847,23.6030116678664,800.1638998428716,-0.30399847637922406
131,24.212697157281767,23.60305195169733,800.1606730342986,-0.30418875658079775
132,24.21360119011822,23.6030924589303,800.1574616842993,-0.30435887406142703
133,24.214522453412126,23.60313318545829,800.1542659331558,-0.30450886341518557
134,24.215460891044707,23.60317412715975,800.1510859197084,-0.3046387609809373
135,24.216416445527656,23.603215279899175,800.1479217813422,-0.30474860483401944
136,24.217389058012486,23.603256639527718,800.1447736539737,-0.3048384347777038
137,24.218378668300055,23.6032982018838,800.141641672039,-0.3049082923344368
138,24.219385214850245,23.60333996279371,800.1385259684802,-0.304958220736862
139,24.220408634791838,23.603381918072238,800.1354266747342,-0.3049882649186253
140,24.221448863932554,23.603424063523256,800.1323439207192,-0.30499847150496545
141,24.22250583676923,23.603466394940355,800.1292778348235,-0.30498888880309283
142,24.223579486498192,23.60350890810744,800.126228543893,-0.3049595667923566
143,24.22466974502578,23.603551598799356,800.1231961732201,-0.30491055711420395
144,24.225776542979016,23.6035944627825,800.1201808465318,-0.30484191306193303
145,24.226899809716464,23.603637495815423,800.1171826859783,-0.3047536895702411
146,24.228039473339205,23.603680693649455,800.114201812122,-0.30464594320457133
147,24.22919546070199,23.603724052029317,800.1112383439266,-0.3045187321502588
148,24.230367697424548,23.60376756669373,800.1082923987464,-0.3043721162014798
149,24.231556107903025,23.60381123337603,800.105364092315,-0.30420615675000484
150,24.232760615321567,23.603855047804792,800.1024535387359,-0.30402091677375914
151,24.23398114166409,23.603899005704424,800.0995608504714,-0.3038164608251921
152,24.23521760772612,23.6039431027958,800.0966861383333,-0.3035928550194581
153,24.236469933126852,23.603987334796873,800.0938295114726,-0.30335016702241147
154,24.237738036321264,23.60403169742327,800.0909910773698,-0.3030884660384177
155,24.239021834612444,23.60407618638892,800.0881709418259,-0.3028078227979836
156,24.240321244163997,23.604120797406637,800.0853692089526,-0.30250830954520797
157,24.241636180012602,23.604165526188766,800.0825859811634,-0.30219000002505664
158,24.242966556080695,23.604210368447763,800.0798213591652,-0.30185296947046353
159,24.244312285189267,23.604255319896822,800.0770754419489,-0.3014972945892604
160,24.24567327907079,23.604300376250468,800.0743483267813,-0.3011230535509376
161,24.247049448382278,23.604345533225164,800.0716401091969,-0.30073032597323945
162,24.248440702718458,23.60439078653992,800.0689508829897,-0.3003191929085951
163,24.249846950625034,23.60443613191688,800.0662807402052,-0.29988973683038944
164,24.251268099612087,23.604481565081933,800.0636297711329,-0.2994420416190754
165,24.252704056167577,23.604527081765305,800.0609980642985,-0.2989761925481306
166,24.254154725770963,23.604572677702166,800.0583857064569,-0.29849227626986213
167,24.25562001290691,23.604618348633206,800.0557927825853,-0.29799038080105966
168,24.2570998210791,23.604664090305246,800.0532193758761,-0.29747059550850297
169,24.25859405282415,23.604709898471807,800.05066556773,-0.2969330110943238
170,24.26010260972564,23.60475576889371,800.04813143775,-0.2963777195812267
171,24.261625392428193,23.604801697339667,800.045617063735,-0.29580481429757083
172,24.26316230065171,23.60484767958685,800.043122521673,-0.2952143898623154
173,24.264713233205626,23.60489371142147,800.0406478857366,-0.2946065421698326
174,24.266278088003283,23.604939788639367,800.0381932282763,-0.2939813683745898
175,24.267856762076402,23.60498590704657,800.0357586198157,-0.2933389668757047
176,24.269449151589605,23.60503206245987,800.0333441290454,-0.2926794373013759
177,24.27105515185503,23.605078250707408,800.0309498228191,-0.2920028804931922
178,24.272674657347032,23.60512446762921,800.028575766148,-0.2913093984903233
179,24.274307561716927,23.605170709077765,800.0262220221965,-0.2905990945135952
180,24.27595375780783,23.605216970918576,800.0238886522777,-0.2898720729494527
181,24.277613137669544,23.60526324903073,800.0215757158489,-0.2891284393338128
182,24.279285592573515,23.605309539307427,800.0192832705085,-0.28836830033581184
183,24.280971013027873,23.60535583765655,800.017011371991,-0.2875917637414485
184,24.282669288792484,23.605402140001193,800.0147600741644,-0.28679893843712745
185,24.2843803088941,23.6054484422802,800.0125294290268,-0.28598993439310494
186,24.286103961641547,23.605494740448712,800.0103194867023,-0.2851648626468408
187,24.287840134640945,23.605541030478697,800.0081302954392,-0.28432383528625926
188,24.289588714811003,23.605587308359482,800.0059619016065,-0.2834669654329218
189,24.291349588398337,23.605633570098263,800.0038143496919,-0.2825943672251153
190,24.293122640992838,23.605679811720645,800.0016876822989,-0.281706155800858
191,24.294907757543086,23.605726029271136,799.9995819401454,-0.28080244728082826
192,24.296704822371783,23.60577221881367,799.997497162061,-0.27988335875121667
193,24.298513719191227,23.605818376432115,799.9954333849861,-0.27894900824650654
194,24.300334331118812,23.605864498230776,799.9933906439699,-0.2779995147321854
195,24.30216654069257,23.605910580334886,799.991368972169,-0.27703499808739085
196,24.304010229886718,23.605956618891096,799.9893684008468,-0.27605557908749345
197,24.305865280127232,23.60600261006797,799.9873889593725,-0.2750613793866206
198,24.307731572307446,23.60604855005647,799.9854306752202,-0.27405252150012377
199,24.309608986803667,23.60609443507043,799.9834935739688,-0.273029128786993
200,24.311497403490787,23.60614026134701,799.9815776793014,-0.27199132543222165
201,24.313396701757927,23.606186025147213,799.979683013006,-0.2709392364291242
202,24.31530676052408,23.606231722756302,799.9778095949745,-0.2698729875616113
203,24.317227458253758,23.606277350484262,799.9759574432043,-0.268792705386424
204,24.319158672972616,23.60632290466627,799.9741265737977,-0.26769851721533156
205,24.321100282283144,23.60636838166313,799.9723170009637,-0.26659055109729507
206,24.323052163380282,23.606413777861714,799.9705287370186,-0.26546893580060094
207,24.32501419306707,23.6064590896754,799.9687617923871,-0.26433380079496693
208,24.32698624777026,23.60650431354449,799.9670161756038,-0.26318527623362403
209,24.328968203555974,23.60654944593666,799.9652918933149,-0.2620234929353776
210,24.33095993614527,23.60659448334735,799.9635889502798,-0.2608485823666504
211,24.33296132092976,23.60663942230018,799.9619073493733,-0.2596606766235117
212,24.334972232987155,23.606684259347364,799.9602470915877,-0.25845990841369454
213,24.33699254709683,23.606728991070103,799.9586081760356,-0.2572464110386052
214,24.339022137755332,23.606773614078985,799.9569905999518,-0.2560203183753275
215,24.341060879191907,23.60681812501436,799.9553943586969,-0.2547817648586255
216,24.343108645383936,23.60686252054674,799.9538194457596,-0.25353088546294716
217,24.34516531007238,23.60690679737715,799.9522658527604,-0.25226781568443274
218,24.347230746777186,23.606950952237515,799.950733569455,-0.25099269152293086
219,24.349304828812645,23.606994981891003,799.9492225837374,-0.24970564946402513
220,24.351387429302726,23.6070388831324,799.9477328816444,-0.24840682646107506
221,24.353478421196343,23.607082652788442,799.9462644473589,-0.247096359917273
222,24.355577677282604,23.607126287718163,799.9448172632148,-0.24577438766772192
223,24.357685070206006,23.60716978481324,799.9433913097006,-0.24444104796153587
224,24.35980047248158,23.607213140998304,799.9419865654651,-0.24309647944396676
225,24.361923756509977,23.607256353231264,799.9406030073209,-0.24174082113855996
226,24.3640547945925,23.607299418503626,799.9392406102501,-0.2403742124293425
227,24.3661934589461,23.6073423338408,799.9378993474093,-0.23899679304304608
228,24.36833962171829,23.6073850963024,799.9365791901347,-0.23760870303136836
229,24.370493155002023,23.607427702982537,799.9352801079483,-0.23621008275327535
230,24.372653930850472,23.607470151010098,799.9340020685629,-0.2348010728573477
231,24.374821821291786,23.607512437549033,799.9327450378881,-0.23338181426417412
232,24.37699669834375,23.60755455979863,799.9315089800366,-0.2319524481487946
233,24.379178434028386,23.60759651499377,799.9302938573302,-0.23051311592319615
234,24.381366900386496,23.607638300405192,799.929099630307,-0.2290639592188643
235,24.383561969492096,23.607679913339734,799.927926257727,-0.22760511986939289
236,24.385763513466827,23.60772135114059,799.9267736965794,-0.2261367398931551
237,24.387971404494227,23.60776261118753,799.9256419020893,-0.2246589614760386
238,24.390185514833973,23.607803690897136,799.9245308277253,-0.22317192695424692
239,24.39240571683602,23.60784458772302,799.9234404252068,-0.22167577879717087
240,24.394631882954663,23.60788529915603,799.9223706445109,-0.22017065959033155
241,24.39686388576251,23.60792582272448,799.921321433881,-0.21865671201839865
242,24.399101597964375,23.60796615599431,799.9202927398335,-0.21713407884828587
243,24.40134489241108,23.608006296569297,799.9192845071672,-0.21560290291232648
244,24.403593642113144,23.608046242091238,799.9182966789705,-0.21406332709153156
245,24.405847720254425,23.608085990240113,799.9173291966299,-0.21251549429893338
246,24.40810700020563,23.608125538734274,799.916381999839,-0.21095954746301657
247,24.410371355537727,23.608164885330577,799.9154550266067,-0.20939562951123958
